节点streppel_glasfaster-optik_halolux_150_MAYP1140501__0__581.txt的数据

Date: Tue Mar 01 19:39:16 GMT 2022
User: stone
Spectrometer: MAYP114050
触发模式: 0
积分时间 (秒): 7.200000E-3
Scans to average: 1
启用暗噪声校正: true
启用非线性校正: false
滑动平均宽度: 0
X轴模式: Wavelengths
Number of Pixels in Spectrum: 2068
>>>>>Begin Spectral Data<<<<<
198.571	729.67
199.043	-77.33
199.514	11.67
199.985	-0.33
200.456	55.67
200.928	59.67
201.399	59.67
201.87	86.67
202.341	89.67
202.812	103.67
203.283	97.67
203.754	97.67
204.225	90.67
204.697	91.67
205.168	102.67
205.638	98.67
206.109	87.67
206.58	103.67
207.051	98.67
207.522	99.67
207.993	102.67
208.464	87.67
208.935	88.67
209.405	86.67
209.876	98.67
210.347	95.67
210.818	81.67
211.288	100.67
211.759	99.67
212.229	93.67
212.7	92.67
213.171	81.67
213.641	84.67
214.112	91.67
214.582	100.67
215.053	94.67
215.523	102.67
215.993	81.67
216.464	81.67
216.934	87.67
217.405	94.67
217.875	88.67
218.345	100.67
218.815	82.67
219.286	90.67
219.756	98.67
220.226	93.67
220.696	84.67
221.166	90.67
221.636	83.67
222.107	91.67
222.577	91.67
223.047	93.67
223.517	79.67
223.987	76.67
224.457	91.67
224.927	89.67
225.396	95.67
225.866	81.67
226.336	85.67
226.806	85.67
227.276	79.67
227.746	92.67
228.215	93.67
228.685	91.67
229.155	87.67
229.625	89.67
230.094	95.67
230.564	82.67
231.033	80.67
231.503	83.67
231.973	95.67
232.442	70.67
232.912	96.67
233.381	71.67
233.851	84.67
234.32	82.67
234.789	84.67
235.259	95.67
235.728	90.67
236.197	95.67
236.667	78.67
237.136	80.67
237.605	79.67
238.074	96.67
238.544	89.67
239.013	95.67
239.482	76.67
239.951	102.67
240.42	89.67
240.889	81.67
241.358	83.67
241.827	83.67
242.296	89.67
242.765	83.67
243.234	82.67
243.703	77.67
244.172	92.67
244.641	65.67
245.11	73.67
245.579	86.67
246.047	77.67
246.516	69.67
246.985	90.67
247.454	90.67
247.922	98.67
248.391	79.67
248.86	89.67
249.328	76.67
249.797	80.67
250.265	91.67
250.734	84.67
251.202	92.67
251.671	77.67
252.139	70.67
252.608	78.67
253.076	93.67
253.544	84.67
254.013	86.67
254.481	75.67
254.949	78.67
255.418	69.67
255.886	75.67
256.354	84.67
256.822	75.67
257.291	76.67
257.759	87.67
258.227	77.67
258.695	78.67
259.163	83.67
259.631	65.67
260.099	76.67
260.567	80.67
261.035	84.67
261.503	75.67
261.971	78.67
262.439	72.67
262.907	76.67
263.375	80.67
263.842	80.67
264.31	74.67
264.778	78.67
265.246	86.67
265.713	63.67
266.181	86.67
266.649	87.67
267.116	92.67
267.584	75.67
268.052	82.67
268.519	81.67
268.987	94.67
269.454	74.67
269.922	73.67
270.389	79.67
270.856	81.67
271.324	79.67
271.791	90.67
272.259	78.67
272.726	83.67
273.193	90.67
273.66	88.67
274.128	97.67
274.595	104.67
275.062	84.67
275.529	82.67
275.996	102.67
276.464	90.67
276.931	90.67
277.398	91.67
277.865	86.67
278.332	87.67
278.799	101.67
279.266	82.67
279.733	108.67
280.2	110.67
280.667	93.67
281.133	102.67
281.6	117.67
282.067	87.67
282.534	94.67
283.001	106.67
283.467	96.67
283.934	107.67
284.401	98.67
284.867	116.67
285.334	107.67
285.801	105.67
286.267	105.67
286.734	104.67
287.2	104.67
287.667	101.67
288.133	106.67
288.6	108.67
289.066	115.67
289.532	112.67
289.999	111.67
290.465	112.67
290.931	114.67
291.398	97.67
291.864	120.67
292.33	113.67
292.796	136.67
293.263	118.67
293.729	112.67
294.195	123.67
294.661	121.67
295.127	120.67
295.593	141.67
296.059	119.67
296.525	115.67
296.991	128.67
297.457	131.67
297.923	123.67
298.389	130.67
298.855	146.67
299.321	138.67
299.786	146.67
300.252	131.67
300.718	133.67
301.184	139.67
301.65	146.67
302.115	148.67
302.581	142.67
303.047	151.67
303.512	146.67
303.978	155.67
304.443	159.67
304.909	152.67
305.374	141.67
305.84	149.67
306.305	159.67
306.771	171.67
307.236	133.67
307.701	152.67
308.167	181.67
308.632	167.67
309.097	156.67
309.563	175.67
310.028	165.67
310.493	172.67
310.958	182.67
311.424	171.67
311.889	170.67
312.354	170.67
312.819	163.67
313.284	179.67
313.749	162.67
314.214	177.67
314.679	167.67
315.144	166.67
315.609	169.67
316.074	172.67
316.539	174.67
317.004	162.67
317.468	186.67
317.933	189.67
318.398	188.67
318.863	189.67
319.327	188.67
319.792	189.67
320.257	204.67
320.721	194.67
321.186	206.67
321.651	197.67
322.115	206.67
322.58	207.67
323.044	191.67
323.509	206.67
323.973	192.67
324.438	195.67
324.902	223.67
325.366	181.67
325.831	215.67
326.295	197.67
326.759	202.67
327.224	216.67
327.688	233.67
328.152	232.67
328.616	233.67
329.081	212.67
329.545	231.67
330.009	240.67
330.473	226.67
330.937	238.67
331.401	243.67
331.865	272.67
332.329	253.67
332.793	241.67
333.257	271.67
333.721	265.67
334.185	280.67
334.649	292.67
335.112	276.67
335.576	288.67
336.04	277.67
336.504	301.67
336.967	292.67
337.431	294.67
337.895	314.67
338.358	311.67
338.822	322.67
339.286	317.67
339.749	308.67
340.213	328.67
340.676	401.67
341.14	357.67
341.603	377.67
342.067	383.67
342.53	427.67
342.993	428.67
343.457	460.67
343.92	464.67
344.383	511.67
344.847	574.67
345.31	578.67
345.773	617.67
346.236	627.67
346.699	612.67
347.163	675.67
347.626	702.67
348.089	720.67
348.552	697.67
349.015	755.67
349.478	718.67
349.941	772.67
350.404	765.67
350.867	761.67
351.33	788.67
351.793	783.67
352.255	822.67
352.718	810.67
353.181	789.67
353.644	812.67
354.107	774.67
354.569	819.67
355.032	796.67
355.495	780.67
355.957	761.67
356.42	788.67
356.882	781.67
357.345	761.67
357.808	843.67
358.27	878.67
358.733	937.67
359.195	985.67
359.657	1038.67
360.12	1087.67
360.582	1188.67
361.045	1201.67
361.507	1264.67
361.969	1346.67
362.431	1364.67
362.894	1406.67
363.356	1419.67
363.818	1479.67
364.28	1471.67
364.742	1443.67
365.204	1447.67
365.667	1444.67
366.129	1431.67
366.591	1370.67
367.053	1329.67
367.515	1293.67
367.977	1252.67
368.438	1283.67
368.9	1255.67
369.362	1267.67
369.824	1325.67
370.286	1397.67
370.748	1471.67
371.209	1553.67
371.671	1703.67
372.133	1776.67
372.594	1873.67
373.056	1992.67
373.518	2101.67
373.979	2155.67
374.441	2288.67
374.902	2340.67
375.364	2383.67
375.825	2436.67
376.287	2541.67
376.748	2525.67
377.21	2525.67
377.671	2604.67
378.133	2694.67
378.594	2781.67
379.055	2753.67
379.516	2821.67
379.978	2810.67
380.439	2842.67
380.9	2908.67
381.361	2881.67
381.822	2898.67
382.284	2924.67
382.745	2954.67
383.206	2909.67
383.667	2867.67
384.128	2863.67
384.589	2900.67
385.05	2814.67
385.511	2922.67
385.971	2875.67
386.432	2947.67
386.893	2973.67
387.354	3062.67
387.815	3223.67
388.276	3223.67
388.736	3367.67
389.197	3479.67
389.658	3604.67
390.118	3596.67
390.579	3743.67
391.04	3869.67
391.5	3947.67
391.961	3964.67
392.421	4045.67
392.882	4108.67
393.342	4128.67
393.803	4156.67
394.263	4246.67
394.723	4324.67
395.184	4386.67
395.644	4362.67
396.104	4477.67
396.565	4484.67
397.025	4488.67
397.485	4569.67
397.945	4637.67
398.406	4728.67
398.866	4781.67
399.326	4851.67
399.786	4931.67
400.246	4938.67
400.706	4951.67
401.166	4943.67
401.626	4967.67
402.086	5019.67
402.546	5090.67
403.006	5154.67
403.466	5114.67
403.926	5181.67
404.385	5203.67
404.845	5284.67
405.305	5316.67
405.765	5402.67
406.224	5372.67
406.684	5435.67
407.144	5483.67
407.603	5606.67
408.063	5598.67
408.523	5654.67
408.982	5690.67
409.442	5801.67
409.901	5866.67
410.361	5916.67
410.82	6030.67
411.28	6025.67
411.739	6127.67
412.198	6197.67
412.658	6329.67
413.117	6349.67
413.576	6486.67
414.035	6449.67
414.495	6490.67
414.954	6719.67
415.413	6714.67
415.872	6718.67
416.331	6794.67
416.79	6943.67
417.249	6899.67
417.709	7027.67
418.168	7093.67
418.627	7197.67
419.085	7197.67
419.544	7341.67
420.003	7441.67
420.462	7466.67
420.921	7517.67
421.38	7581.67
421.839	7633.67
422.297	7665.67
422.756	7783.67
423.215	7951.67
423.674	7866.67
424.132	7908.67
424.591	7997.67
425.049	8075.67
425.508	8168.67
425.967	8245.67
426.425	8388.67
426.884	8489.67
427.342	8465.67
427.8	8633.67
428.259	8644.67
428.717	8683.67
429.176	8744.67
429.634	8857.67
430.092	8889.67
430.551	9001.67
431.009	9084.67
431.467	9145.67
431.925	9207.67
432.383	9334.67
432.841	9370.67
433.3	9463.67
433.758	9546.67
434.216	9623.67
434.674	9707.67
435.132	9725.67
435.59	9796.67
436.048	9905.67
436.506	10050.67
436.963	10081.67
437.421	10224.67
437.879	10217.67
438.337	10415.67
438.795	10307.67
439.253	10380.67
439.71	10515.67
440.168	10544.67
440.626	10778.67
441.083	10826.67
441.541	10965.67
441.999	10920.67
442.456	11007.67
442.914	11174.67
443.371	11165.67
443.829	11318.67
444.286	11554.67
444.743	11438.67
445.201	11622.67
445.658	11681.67
446.116	11738.67
446.573	11789.67
447.03	11869.67
447.487	12007.67
447.945	11932.67
448.402	12070.67
448.859	12284.67
449.316	12334.67
449.773	12276.67
450.23	12486.67
450.688	12480.67
451.145	12590.67
451.602	12732.67
452.059	12940.67
452.516	13043.67
452.972	12907.67
453.429	13200.67
453.886	13159.67
454.343	13244.67
454.8	13253.67
455.257	13449.67
455.713	13538.67
456.17	13395.67
456.627	13802.67
457.084	13963.67
457.54	13929.67
457.997	13966.67
458.454	14124.67
458.91	14157.67
459.367	14225.67
459.823	14345.67
460.28	14506.67
460.736	14525.67
461.193	14645.67
461.649	14831.67
462.105	14914.67
462.562	14975.67
463.018	15144.67
463.474	15133.67
463.931	15253.67
464.387	15527.67
464.843	15657.67
465.299	15699.67
465.755	15698.67
466.212	15938.67
466.668	15976.67
467.124	16104.67
467.58	16108.67
468.036	16197.67
468.492	16215.67
468.948	16425.67
469.404	16581.67
469.86	16766.67
470.316	16748.67
470.771	16805.67
471.227	17108.67
471.683	17048.67
472.139	17257.67
472.595	17279.67
473.05	17304.67
473.506	17559.67
473.962	17588.67
474.417	17691.67
474.873	17760.67
475.328	17726.67
475.784	18029.67
476.24	18008.67
476.695	18136.67
477.15	18300.67
477.606	18378.67
478.061	18494.67
478.517	18583.67
478.972	18557.67
479.427	18748.67
479.883	18923.67
480.338	19021.67
480.793	19130.67
481.248	19136.67
481.704	19185.67
482.159	19330.67
482.614	19463.67
483.069	19586.67
483.524	19588.67
483.979	19699.67
484.434	19877.67
484.889	19907.67
485.344	20168.67
485.799	20280.67
486.254	20187.67
486.709	20491.67
487.164	20522.67
487.619	20710.67
488.073	20777.67
488.528	20965.67
488.983	20811.67
489.438	21007.67
489.892	21155.67
490.347	21111.67
490.802	21280.67
491.256	21374.67
491.711	21608.67
492.165	21537.67
492.62	21707.67
493.074	21951.67
493.529	21903.67
493.983	22012.67
494.438	22194.67
494.892	22172.67
495.347	22305.67
495.801	22396.67
496.255	22344.67
496.709	22601.67
497.164	22731.67
497.618	22703.67
498.072	22868.67
498.526	22932.67
498.98	23076.67
499.435	23215.67
499.889	23043.67
500.343	23201.67
500.797	23325.67
501.251	23476.67
501.705	23496.67
502.159	23773.67
502.612	23765.67
503.066	23825.67
503.52	24320.67
503.974	24223.67
504.428	24285.67
504.882	24321.67
505.335	24542.67
505.789	24593.67
506.243	24727.67
506.696	24975.67
507.15	25066.67
507.604	25119.67
508.057	25188.67
508.511	25375.67
508.964	25480.67
509.418	25572.67
509.871	25749.67
510.325	25750.67
510.778	25771.67
511.231	26150.67
511.685	26475.67
512.138	26509.67
512.591	26608.67
513.045	26827.67
513.498	26686.67
513.951	26982.67
514.404	27154.67
514.857	27262.67
515.311	27349.67
515.764	27527.67
516.217	27725.67
516.67	27701.67
517.123	27903.67
517.576	27823.67
518.029	28047.67
518.482	28193.67
518.935	28367.67
519.388	28443.67
519.84	28737.67
520.293	28689.67
520.746	28876.67
521.199	28941.67
521.651	28922.67
522.104	29211.67
522.557	29233.67
523.009	29400.67
523.462	29590.67
523.915	29689.67
524.367	29805.67
524.82	30023.67
525.272	30019.67
525.725	30348.67
526.177	30464.67
526.63	30481.67
527.082	30505.67
527.534	30637.67
527.987	30855.67
528.439	30886.67
528.891	30977.67
529.344	31263.67
529.796	31248.67
530.248	31500.67
530.7	31466.67
531.152	31662.67
531.604	31821.67
532.057	31867.67
532.509	31978.67
532.961	32251.67
533.413	32334.67
533.865	32269.67
534.317	32488.67
534.768	32616.67
535.22	32829.67
535.672	32749.67
536.124	32859.67
536.576	33051.67
537.028	33404.67
537.479	33232.67
537.931	33229.67
538.383	33409.67
538.834	33600.67
539.286	33690.67
539.738	33983.67
540.189	34041.67
540.641	34040.67
541.092	33880.67
541.544	34131.67
541.995	34412.67
542.447	34581.67
542.898	34602.67
543.349	34748.67
543.801	35055.67
544.252	35125.67
544.703	35173.67
545.155	35067.67
545.606	34989.67
546.057	35092.67
546.508	35388.67
546.959	35759.67
547.411	35740.67
547.862	35777.67
548.313	35965.67
548.764	35961.67
549.215	36007.67
549.666	36054.67
550.117	36258.67
550.568	36458.67
551.019	36704.67
551.469	36516.67
551.92	36760.67
552.371	36873.67
552.822	37017.67
553.273	37220.67
553.723	37417.67
554.174	37298.67
554.625	37124.67
555.075	37550.67
555.526	37697.67
555.977	37551.67
556.427	37694.67
556.878	37813.67
557.328	37777.67
557.779	37983.67
558.229	38506.67
558.679	38136.67
559.13	38274.67
559.58	38379.67
560.031	38496.67
560.481	38719.67
560.931	38884.67
561.381	39261.67
561.832	39396.67
562.282	39521.67
562.732	39449.67
563.182	39454.67
563.632	39427.67
564.082	39287.67
564.532	39552.67
564.982	39782.67
565.432	39765.67
565.882	40033.67
566.332	40199.67
566.782	40156.67
567.232	40183.67
567.682	40309.67
568.131	40535.67
568.581	40476.67
569.031	40680.67
569.481	41089.67
569.93	41298.67
570.38	41272.67
570.83	41207.67
571.279	41320.67
571.729	41469.67
572.179	41511.67
572.628	41631.67
573.078	41956.67
573.527	41787.67
573.976	41572.67
574.426	41945.67
574.875	42143.67
575.325	42061.67
575.774	42429.67
576.223	42290.67
576.672	42591.67
577.122	42852.67
577.571	42927.67
578.02	43131.67
578.469	42995.67
578.918	43159.67
579.367	43120.67
579.817	43218.67
580.266	43259.67
580.715	43399.67
581.164	43425.67
581.613	43315.67
582.061	43529.67
582.51	43878.67
582.959	44348.67
583.408	44281.67
583.857	44493.67
584.306	44446.67
584.754	44618.67
585.203	44542.67
585.652	44823.67
586.1	44917.67
586.549	45213.67
586.998	45139.67
587.446	45273.67
587.895	45168.67
588.343	45151.67
588.792	45175.67
589.24	45323.67
589.689	45521.67
590.137	45766.67
590.586	45673.67
591.034	46001.67
591.482	45858.67
591.931	46103.67
592.379	46121.67
592.827	46440.67
593.275	46266.67
593.723	46540.67
594.172	46636.67
594.62	46776.67
595.068	46742.67
595.516	46832.67
595.964	46811.67
596.412	46710.67
596.86	46904.67
597.308	47211.67
597.756	47184.67
598.204	47478.67
598.651	47463.67
599.099	47596.67
599.547	47529.67
599.995	47511.67
600.443	47675.67
600.89	47844.67
601.338	47996.67
601.786	48079.67
602.233	48275.67
602.681	48462.67
603.128	48892.67
603.576	48667.67
604.023	48815.67
604.471	48635.67
604.918	48868.67
605.366	49005.67
605.813	49187.67
606.261	49238.67
606.708	49365.67
607.155	49460.67
607.603	49656.67
608.05	49788.67
608.497	50200.67
608.944	50108.67
609.391	50237.67
609.839	50239.67
610.286	50429.67
610.733	50552.67
611.18	50606.67
611.627	51040.67
612.074	51017.67
612.521	51267.67
612.968	50987.67
613.415	51093.67
613.861	51371.67
614.308	51111.67
614.755	51414.67
615.202	51517.67
615.649	51422.67
616.095	51567.67
616.542	51520.67
616.989	51899.67
617.435	52183.67
617.882	51943.67
618.329	52209.67
618.775	52197.67
619.222	51930.67
619.668	51869.67
620.115	51940.67
620.561	52245.67
621.007	52330.67
621.454	52343.67
621.9	52191.67
622.347	52463.67
622.793	52440.67
623.239	52811.67
623.685	52814.67
624.132	52889.67
624.578	52663.67
625.024	53020.67
625.47	53295.67
625.916	53229.67
626.362	53314.67
626.808	53171.67
627.254	53160.67
627.7	53397.67
628.146	53335.67
628.592	53185.67
629.038	53387.67
629.484	53875.67
629.93	53947.67
630.375	54015.67
630.821	54063.67
631.267	54082.67
631.713	54236.67
632.158	54156.67
632.604	54253.67
633.05	54811.67
633.495	54577.67
633.941	54623.67
634.386	54922.67
634.832	54913.67
635.277	54729.67
635.723	55179.67
636.168	55337.67
636.613	55021.67
637.059	54732.67
637.504	55056.67
637.949	55403.67
638.395	55363.67
638.84	55333.67
639.285	55630.67
639.73	55456.67
640.175	55639.67
640.621	55636.67
641.066	55919.67
641.511	56067.67
641.956	55761.67
642.401	55809.67
642.846	55883.67
643.291	55457.67
643.736	55365.67
644.181	55783.67
644.625	56045.67
645.07	55873.67
645.515	55988.67
645.96	56343.67
646.405	56428.67
646.849	56080.67
647.294	56003.67
647.739	56229.67
648.183	55824.67
648.628	55598.67
649.072	55544.67
649.517	55887.67
649.961	56108.67
650.406	56595.67
650.85	56543.67
651.295	56193.67
651.739	56233.67
652.184	56024.67
652.628	55731.67
653.072	55488.67
653.516	56082.67
653.961	55836.67
654.405	55959.67
654.849	56092.67
655.293	55758.67
655.737	55801.67
656.182	55798.67
656.626	55494.67
657.07	55643.67
657.514	55373.67
657.958	55843.67
658.402	55976.67
658.845	56085.67
659.289	55570.67
659.733	55376.67
660.177	55157.67
660.621	55326.67
661.065	55311.67
661.508	55317.67
661.952	55155.67
662.396	55100.67
662.839	55119.67
663.283	54953.67
663.727	54947.67
664.17	54651.67
664.614	54705.67
665.057	54963.67
665.501	54919.67
665.944	54753.67
666.388	54575.67
666.831	54864.67
667.274	54703.67
667.718	54529.67
668.161	54566.67
668.604	54693.67
669.048	54680.67
669.491	54138.67
669.934	54011.67
670.377	53973.67
670.82	54017.67
671.263	53789.67
671.706	54070.67
672.149	54194.67
672.592	54002.67
673.035	53919.67
673.478	53912.67
673.921	53913.67
674.364	53848.67
674.807	53336.67
675.25	53201.67
675.693	53138.67
676.135	53097.67
676.578	53382.67
677.021	53421.67
677.464	53162.67
677.906	52685.67
678.349	52540.67
678.791	52766.67
679.234	52914.67
679.676	52877.67
680.119	52703.67
680.561	52552.67
681.004	52390.67
681.446	52429.67
681.889	52514.67
682.331	52386.67
682.773	52110.67
683.216	52269.67
683.658	52221.67
684.1	52266.67
684.542	52325.67
684.985	52371.67
685.427	52329.67
685.869	52212.67
686.311	52220.67
686.753	52123.67
687.195	52013.67
687.637	51664.67
688.079	51613.67
688.521	51399.67
688.963	51389.67
689.405	51557.67
689.846	51913.67
690.288	52193.67
690.73	52551.67
691.172	52326.67
691.614	52000.67
692.055	51516.67
692.497	51653.67
692.939	51567.67
693.38	51515.67
693.822	51491.67
694.263	51455.67
694.705	51344.67
695.146	51651.67
695.588	51443.67
696.029	51299.67
696.471	51368.67
696.912	51008.67
697.353	50829.67
697.795	50732.67
698.236	50801.67
698.677	50820.67
699.118	51055.67
699.56	51191.67
700.001	51743.67
700.442	51491.67
700.883	51294.67
701.324	51300.67
701.765	51315.67
702.206	51424.67
702.647	51474.67
703.088	51447.67
703.529	51163.67
703.97	51304.67
704.411	51150.67
704.852	51623.67
705.292	51279.67
705.733	50994.67
706.174	51096.67
706.615	50982.67
707.055	50853.67
707.496	50912.67
707.937	51100.67
708.377	51319.67
708.818	51536.67
709.258	51287.67
709.699	51244.67
710.139	50794.67
710.58	50651.67
711.02	50868.67
711.461	50837.67
711.901	50388.67
712.341	50207.67
712.781	50245.67
713.222	50533.67
713.662	50834.67
714.102	50504.67
714.542	50070.67
714.983	49831.67
715.423	49981.67
715.863	50299.67
716.303	50621.67
716.743	50155.67
717.183	50299.67
717.623	50136.67
718.063	50265.67
718.503	49534.67
718.942	49513.67
719.382	49424.67
719.822	49150.67
720.262	49173.67
720.702	49327.67
721.141	49145.67
721.581	49161.67
722.021	48909.67
722.46	49001.67
722.9	48949.67
723.34	48833.67
723.779	48949.67
724.219	48895.67
724.658	48572.67
725.098	48127.67
725.537	47991.67
725.976	48195.67
726.416	48073.67
726.855	47943.67
727.294	47522.67
727.734	47297.67
728.173	47226.67
728.612	46971.67
729.051	46772.67
729.49	46306.67
729.93	45963.67
730.369	45699.67
730.808	45939.67
731.247	45785.67
731.686	46017.67
732.125	46044.67
732.564	45799.67
733.003	45380.67
733.441	45279.67
733.88	44765.67
734.319	44486.67
734.758	44029.67
735.197	43657.67
735.635	43122.67
736.074	43137.67
736.513	42714.67
736.951	42773.67
737.39	42558.67
737.829	42296.67
738.267	41992.67
738.706	41731.67
739.144	41467.67
739.583	41153.67
740.021	40513.67
740.459	40196.67
740.898	40046.67
741.336	39881.67
741.774	39603.67
742.213	39592.67
742.651	39152.67
743.089	38778.67
743.527	38226.67
743.966	37974.67
744.404	37748.67
744.842	37341.67
745.28	36974.67
745.718	36718.67
746.156	36507.67
746.594	36195.67
747.032	35896.67
747.47	35641.67
747.908	35695.67
748.345	35176.67
748.783	35048.67
749.221	34627.67
749.659	34356.67
750.097	33891.67
750.534	33331.67
750.972	33105.67
751.41	32541.67
751.847	32076.67
752.285	31699.67
752.722	31223.67
753.16	31138.67
753.597	30832.67
754.035	30731.67
754.472	30579.67
754.91	30264.67
755.347	30145.67
755.784	29678.67
756.222	29136.67
756.659	28856.67
757.096	28427.67
757.533	28120.67
757.97	28046.67
758.408	27814.67
758.845	27567.67
759.282	27243.67
759.719	26942.67
760.156	26496.67
760.593	26430.67
761.03	26016.67
761.467	25772.67
761.904	25426.67
762.341	25162.67
762.777	24560.67
763.214	24158.67
763.651	23947.67
764.088	23591.67
764.525	23436.67
764.961	23061.67
765.398	22826.67
765.835	22553.67
766.271	22506.67
766.708	22268.67
767.144	21857.67
767.581	21667.67
768.017	21290.67
768.454	21005.67
768.89	20831.67
769.327	20427.67
769.763	20413.67
770.199	20266.67
770.636	20090.67
771.072	19937.67
771.508	19693.67
771.944	19521.67
772.38	19417.67
772.817	19446.67
773.253	19073.67
773.689	18759.67
774.125	18530.67
774.561	18439.67
774.997	18350.67
775.433	18406.67
775.869	18276.67
776.305	18405.67
776.741	18167.67
777.176	18000.67
777.612	18023.67
778.048	17838.67
778.484	17857.67
778.919	17773.67
779.355	17684.67
779.791	17433.67
780.226	17433.67
780.662	17233.67
781.098	17278.67
781.533	17273.67
781.969	17383.67
782.404	17420.67
782.839	17462.67
783.275	17376.67
783.71	17537.67
784.146	17609.67
784.581	17520.67
785.016	17562.67
785.452	17751.67
785.887	17635.67
786.322	17569.67
786.757	17531.67
787.192	17614.67
787.627	17904.67
788.062	18005.67
788.497	18088.67
788.932	18318.67
789.367	18365.67
789.802	18432.67
790.237	18520.67
790.672	18783.67
791.107	18864.67
791.542	18855.67
791.977	19011.67
792.411	19068.67
792.846	19043.67
793.281	19052.67
793.716	19254.67
794.15	19487.67
794.585	19627.67
795.019	19763.67
795.454	19780.67
795.888	20006.67
796.323	20232.67
796.757	20301.67
797.192	20596.67
797.626	20655.67
798.061	20733.67
798.495	20898.67
798.929	20884.67
799.364	20852.67
799.798	20943.67
800.232	21216.67
800.666	21370.67
801.1	21421.67
801.534	21472.67
801.969	21715.67
802.403	22012.67
802.837	21985.67
803.271	22092.67
803.705	22105.67
804.138	22225.67
804.572	22296.67
805.006	22454.67
805.44	22445.67
805.874	22496.67
806.308	22402.67
806.741	22471.67
807.175	22524.67
807.609	22758.67
808.043	22762.67
808.476	22794.67
808.91	23137.67
809.343	23277.67
809.777	23471.67
810.21	23378.67
810.644	23316.67
811.077	23266.67
811.511	23397.67
811.944	23515.67
812.377	23292.67
812.811	23147.67
813.244	23146.67
813.677	23144.67
814.11	23234.67
814.544	23206.67
814.977	23498.67
815.41	23344.67
815.843	23137.67
816.276	22927.67
816.709	23082.67
817.142	23108.67
817.575	23083.67
818.008	23171.67
818.441	23123.67
818.874	23445.67
819.307	23591.67
819.739	23694.67
820.172	23494.67
820.605	23170.67
821.038	23202.67
821.47	23109.67
821.903	23052.67
822.336	23108.67
822.768	22963.67
823.201	23070.67
823.633	22903.67
824.066	22792.67
824.498	22649.67
824.931	22445.67
825.363	22589.67
825.796	22433.67
826.228	22304.67
826.66	22422.67
827.093	22243.67
827.525	22065.67
827.957	22313.67
828.389	22476.67
828.822	22578.67
829.254	22450.67
829.686	22500.67
830.118	22566.67
830.55	22278.67
830.982	22044.67
831.414	21792.67
831.846	21736.67
832.278	21541.67
832.71	21564.67
833.141	21635.67
833.573	21461.67
834.005	21379.67
834.437	21115.67
834.869	21062.67
835.3	21008.67
835.732	21034.67
836.164	20776.67
836.595	20637.67
837.027	20449.67
837.458	20232.67
837.89	20047.67
838.321	20208.67
838.753	20157.67
839.184	19898.67
839.616	19814.67
840.047	19855.67
840.478	19619.67
840.91	19268.67
841.341	19339.67
841.772	19279.67
842.203	19158.67
842.634	18892.67
843.066	18787.67
843.497	18502.67
843.928	18463.67
844.359	18408.67
844.79	18157.67
845.221	18069.67
845.652	18008.67
846.083	17944.67
846.513	17655.67
846.944	17589.67
847.375	17570.67
847.806	17407.67
848.237	17152.67
848.667	16856.67
849.098	16572.67
849.529	16512.67
849.959	16226.67
850.39	16073.67
850.821	15967.67
851.251	15806.67
851.682	15687.67
852.112	15559.67
852.543	15771.67
852.973	15560.67
853.403	15467.67
853.834	15311.67
854.264	15099.67
854.694	14950.67
855.125	14650.67
855.555	14351.67
855.985	14101.67
856.415	13926.67
856.845	13828.67
857.275	13561.67
857.706	13332.67
858.136	13164.67
858.566	12939.67
858.996	12807.67
859.425	12548.67
859.855	12427.67
860.285	12323.67
860.715	12239.67
861.145	12070.67
861.575	11924.67
862.004	11750.67
862.434	11536.67
862.864	11224.67
863.294	11099.67
863.723	10811.67
864.153	10692.67
864.582	10363.67
865.012	10305.67
865.441	10182.67
865.871	10036.67
866.3	9835.67
866.73	9584.67
867.159	9401.67
867.588	9212.67
868.018	9212.67
868.447	8916.67
868.876	8849.67
869.306	8693.67
869.735	8540.67
870.164	8257.67
870.593	7974.67
871.022	7785.67
871.451	7528.67
871.88	7406.67
872.309	7079.67
872.738	6958.67
873.167	6818.67
873.596	6794.67
874.025	6675.67
874.454	6405.67
874.883	6320.67
875.311	6189.67
875.74	6028.67
876.169	5881.67
876.597	5801.67
877.026	5653.67
877.455	5520.67
877.883	5343.67
878.312	5202.67
878.74	5002.67
879.169	4841.67
879.597	4784.67
880.026	4581.67
880.454	4465.67
880.883	4314.67
881.311	4223.67
881.739	4122.67
882.167	4025.67
882.596	3925.67
883.024	3736.67
883.452	3629.67
883.88	3525.67
884.308	3494.67
884.736	3383.67
885.164	3320.67
885.593	3260.67
886.02	3135.67
886.448	2992.67
886.876	2949.67
887.304	2883.67
887.732	2822.67
888.16	2703.67
888.588	2646.67
889.016	2589.67
889.443	2487.67
889.871	2511.67
890.299	2471.67
890.726	2396.67
891.154	2366.67
891.581	2305.67
892.009	2231.67
892.436	2212.67
892.864	2205.67
893.291	2170.67
893.719	2144.67
894.146	2077.67
894.574	2085.67
895.001	2054.67
895.428	2080.67
895.855	1979.67
896.283	1971.67
896.71	2037.67
897.137	1993.67
897.564	2034.67
897.991	2071.67
898.418	2086.67
898.845	2005.67
899.272	2124.67
899.699	2134.67
900.126	2117.67
900.553	2102.67
900.98	2211.67
901.407	2229.67
901.834	2270.67
902.26	2213.67
902.687	2316.67
903.114	2349.67
903.541	2401.67
903.967	2460.67
904.394	2511.67
904.82	2575.67
905.247	2624.67
905.674	2625.67
906.1	2678.67
906.527	2755.67
906.953	2767.67
907.379	2915.67
907.806	2950.67
908.232	2956.67
908.658	3143.67
909.085	3262.67
909.511	3338.67
909.937	3409.67
910.363	3447.67
910.789	3506.67
911.215	3569.67
911.642	3558.67
912.068	3721.67
912.494	3741.67
912.92	3850.67
913.346	3822.67
913.771	3928.67
914.197	3970.67
914.623	4068.67
915.049	4166.67
915.475	4191.67
915.901	4308.67
916.326	4379.67
916.752	4539.67
917.178	4527.67
917.603	4580.67
918.029	4686.67
918.454	4757.67
918.88	4923.67
919.305	4968.67
919.731	5086.67
920.156	5133.67
920.582	5224.67
921.007	5340.67
921.433	5347.67
921.858	5572.67
922.283	5625.67
922.708	5606.67
923.134	5673.67
923.559	5730.67
923.984	5747.67
924.409	5853.67
924.834	5958.67
925.259	5941.67
925.684	6032.67
926.109	6178.67
926.534	6238.67
926.959	6242.67
927.384	6437.67
927.809	6521.67
928.234	6556.67
928.658	6611.67
929.083	6613.67
929.508	6758.67
929.933	6783.67
930.357	6827.67
930.782	6877.67
931.206	6889.67
931.631	6918.67
932.056	7023.67
932.48	7140.67
932.905	7127.67
933.329	7198.67
933.753	7408.67
934.178	7312.67
934.602	7330.67
935.026	7443.67
935.451	7439.67
935.875	7499.67
936.299	7529.67
936.723	7559.67
937.148	7531.67
937.572	7717.67
937.996	7659.67
938.42	7680.67
938.844	7805.67
939.268	7942.67
939.692	8025.67
940.116	8120.67
940.54	8012.67
940.963	8143.67
941.387	8130.67
941.811	8172.67
942.235	8101.67
942.659	8157.67
943.082	8279.67
943.506	8276.67
943.93	8415.67
944.353	8370.67
944.777	8376.67
945.2	8387.67
945.624	8329.67
946.047	8298.67
946.471	8389.67
946.894	8335.67
947.317	8423.67
947.741	8335.67
948.164	8308.67
948.587	8375.67
949.011	8583.67
949.434	8630.67
949.857	8607.67
950.28	8575.67
950.703	8822.67
951.126	8724.67
951.549	8634.67
951.973	8619.67
952.395	8652.67
952.818	8677.67
953.241	8528.67
953.664	8693.67
954.087	8785.67
954.51	8711.67
954.933	8649.67
955.356	8727.67
955.778	8674.67
956.201	8586.67
956.624	8613.67
957.046	8457.67
957.469	8534.67
957.891	8481.67
958.314	8559.67
958.736	8535.67
959.159	8406.67
959.581	8444.67
960.004	8435.67
960.426	8427.67
960.848	8330.67
961.271	8400.67
961.693	8242.67
962.115	8219.67
962.538	8085.67
962.96	8032.67
963.382	8000.67
963.804	7941.67
964.226	7976.67
964.648	7875.67
965.07	7943.67
965.492	8018.67
965.914	7969.67
966.336	7896.67
966.758	7884.67
967.18	7830.67
967.601	7645.67
968.023	7766.67
968.445	7695.67
968.867	7730.67
969.288	7519.67
969.71	7618.67
970.132	7609.67
970.553	7588.67
970.975	7457.67
971.396	7485.67
971.818	7428.67
972.239	7301.67
972.661	7290.67
973.082	7311.67
973.504	7158.67
973.925	7095.67
974.346	7037.67
974.767	6945.67
975.189	6948.67
975.61	6863.67
976.031	6871.67
976.452	6874.67
976.873	6733.67
977.294	6758.67
977.715	6640.67
978.136	6669.67
978.557	6619.67
978.978	6445.67
979.399	6381.67
979.82	6479.67
980.241	6251.67
980.662	6170.67
981.083	6194.67
981.503	6183.67
981.924	6039.67
982.345	6013.67
982.765	5837.67
983.186	5820.67
983.607	5865.67
984.027	5760.67
984.448	5695.67
984.868	5614.67
985.289	5541.67
985.709	5490.67
986.129	5389.67
986.55	5267.67
986.97	5358.67
987.39	5280.67
987.811	5276.67
988.231	5177.67
988.651	5206.67
989.071	5168.67
989.491	5119.67
989.911	5042.67
990.331	5188.67
990.751	5077.67
991.171	4930.67
991.591	4888.67
992.011	4879.67
992.431	4860.67
992.851	4830.67
993.271	4816.67
993.691	4788.67
994.11	4671.67
994.53	4711.67
994.95	4711.67
995.369	4606.67
995.789	4564.67
996.209	4532.67
996.628	4476.67
997.048	4388.67
997.467	4294.67
997.887	4362.67
998.306	4351.67
998.726	4291.67
999.145	4241.67
999.564	4204.67
999.984	4125.67
1000.403	4181.67
1000.822	4140.67
1001.241	4098.67
1001.66	4008.67
1002.08	3899.67
1002.499	3876.67
1002.918	3880.67
1003.337	3817.67
1003.756	3859.67
1004.175	3798.67
1004.594	3763.67
1005.013	3699.67
1005.432	3671.67
1005.85	3665.67
1006.269	3568.67
1006.688	3515.67
1007.107	3433.67
1007.525	3377.67
1007.944	3315.67
1008.363	3203.67
1008.781	3238.67
1009.2	3161.67
1009.618	3108.67
1010.037	3073.67
1010.455	3050.67
1010.874	3025.67
1011.292	2905.67
1011.711	2852.67
1012.129	2799.67
1012.547	2834.67
1012.966	2734.67
1013.384	2670.67
1013.802	2645.67
1014.22	2589.67
1014.638	2553.67
1015.057	2570.67
1015.475	2492.67
1015.893	2500.67
1016.311	2420.67
1016.729	2348.67
1017.147	2287.67
1017.565	2283.67
1017.982	2243.67
1018.4	2155.67
1018.818	2123.67
1019.236	2026.67
1019.654	2071.67
1020.071	1992.67
1020.489	1966.67
1020.907	1921.67
1021.324	1849.67
1021.742	1865.67
1022.159	1821.67
1022.577	1769.67
1022.995	1788.67
1023.412	1686.67
1023.829	1697.67
1024.247	1598.67
1024.664	1601.67
1025.081	1596.67
1025.499	1499.67
1025.916	1509.67
1026.333	1491.67
1026.75	1438.67
1027.168	1452.67
1027.585	1368.67
1028.002	1367.67
1028.419	1323.67
1028.836	1283.67
1029.253	1289.67
1029.67	1168.67
1030.087	1154.67
1030.504	1145.67
1030.92	1138.67
1031.337	1124.67
1031.754	1033.67
1032.171	1039.67
1032.588	983.67
1033.004	982.67
1033.421	976.67
1033.838	929.67
1034.254	940.67
1034.671	883.67
1035.087	889.67
1035.504	867.67
1035.92	866.67
1036.337	817.67
1036.753	837.67
1037.169	775.67
1037.586	761.67
1038.002	717.67
1038.418	708.67
1038.834	691.67
1039.251	675.67
1039.667	660.67
1040.083	638.67
1040.499	596.67
1040.915	591.67
1041.331	588.67
1041.747	596.67
1042.163	563.67
1042.579	539.67
1042.995	532.67
1043.411	507.67
1043.827	488.67
1044.242	479.67
1044.658	466.67
1045.074	469.67
1045.49	469.67
1045.905	411.67
1046.321	426.67
1046.736	418.67
1047.152	415.67
1047.568	389.67
1047.983	401.67
1048.399	363.67
1048.814	375.67
1049.229	359.67
1049.645	345.67
1050.06	335.67
1050.475	334.67
1050.891	343.67
1051.306	323.67
1051.721	306.67
1052.136	290.67
1052.551	273.67
1052.966	285.67
1053.381	281.67
1053.796	264.67
1054.211	283.67
1054.626	242.67
1055.041	255.67
1055.456	254.67
1055.871	251.67
1056.286	254.67
1056.701	242.67
1057.115	211.67
1057.53	223.67
1057.945	219.67
1058.36	201.67
1058.774	228.67
1059.189	211.67
1059.603	214.67
1060.018	196.67
1060.432	198.67
1060.847	198.67
1061.261	200.67
1061.676	189.67
1062.09	200.67
1062.504	169.67
1062.919	204.67
1063.333	191.67
1063.747	198.67
1064.161	187.67
1064.575	189.67
1064.99	180.67
1065.404	171.67
1065.818	180.67
1066.232	168.67
1066.646	184.67
1067.06	157.67
1067.474	185.67
1067.887	186.67
1068.301	173.67
1068.715	175.67
1069.129	178.67
1069.543	190.67
1069.956	167.67
1070.37	169.67
1070.784	180.67
1071.197	178.67
1071.611	160.67
1072.024	150.67
1072.438	196.67
1072.851	162.67
1073.265	186.67
1073.678	182.67
1074.092	177.67
1074.505	173.67
1074.918	190.67
1075.332	176.67
1075.745	153.67
1076.158	181.67
1076.571	175.67
1076.984	175.67
1077.398	168.67
1077.811	176.67
1078.224	173.67
1078.637	179.67
1079.05	181.67
1079.463	165.67
1079.876	179.67
1080.288	173.67
1080.701	171.67
1081.114	179.67
1081.527	160.67
1081.94	176.67
1082.352	179.67
1082.765	160.67
1083.178	180.67
1083.59	181.67
1084.003	168.67
1084.415	177.67
1084.828	172.67
1085.24	191.67
1085.653	173.67
1086.065	163.67
1086.478	170.67
1086.89	167.67
1087.302	192.67
1087.715	172.67
1088.127	172.67
1088.539	172.67
1088.951	180.67
1089.363	180.67
1089.775	183.67
1090.187	184.67
1090.599	164.67
1091.011	172.67
1091.423	169.67
1091.835	156.67
1092.247	184.67
1092.659	171.67
1093.071	178.67
1093.483	171.67
1093.895	152.67
1094.306	172.67
1094.718	175.67
1095.13	173.67
1095.541	143.67
1095.953	159.67
1096.364	147.67
1096.776	146.67
1097.187	138.67
1097.599	135.67
1098.01	146.67
1098.422	149.67
1098.833	144.67
1099.244	135.67
1099.656	123.67
1100.067	122.67
1100.478	145.67
1100.889	132.67
1101.3	135.67
1101.712	124.67
1102.123	116.67
1102.534	120.67
1102.945	128.67
1103.356	104.67
1103.767	127.67
1104.178	105.67
1104.588	114.67
1104.999	103.67
1105.41	104.67
1105.821	108.67
1106.232	98.67
1106.642	110.67
1107.053	95.67
1107.464	92.67
1107.874	96.67
1108.285	77.67
1108.695	80.67
1109.106	94.67
1109.516	74.67
1109.927	70.67
1110.337	79.67
1110.748	72.67
1111.158	73.67
1111.568	-0.33
1111.979	-8.33
1112.389	-4.33
1112.799	1.67
